,Date,Adj close,Close,High,Low,Open,Volume
0,2023-04-24,12.350000381469727,12.350000381469727,12.699999809265137,11.949999809265137,12.199999809265137,35633
1,2023-04-25,12.5,12.5,12.649999618530273,12.199999809265137,12.350000381469727,23398
2,2023-04-26,12.550000190734863,12.550000190734863,12.699999809265137,12.25,12.699999809265137,13187
3,2023-04-27,12.699999809265137,12.699999809265137,12.800000190734863,12.350000381469727,12.350000381469727,32800
4,2023-04-28,12.75,12.75,12.850000381469727,12.550000190734863,12.75,38587
5,2023-05-02,12.699999809265137,12.699999809265137,12.899999618530273,12.600000381469727,12.75,19301
6,2023-05-03,12.850000381469727,12.850000381469727,12.949999809265137,12.350000381469727,12.699999809265137,47637
7,2023-05-04,12.899999618530273,12.899999618530273,13.350000381469727,12.600000381469727,12.850000381469727,94715
8,2023-05-05,12.850000381469727,12.850000381469727,13.0,12.699999809265137,12.949999809265137,15433
9,2023-05-08,13.800000190734863,13.800000190734863,14.25,12.800000190734863,12.949999809265137,292716
10,2023-05-09,13.5,13.5,14.0,13.5,13.800000190734863,29964
11,2023-05-10,13.100000381469727,13.100000381469727,13.5,13.100000381469727,13.5,27844
12,2023-05-11,13.199999809265137,13.199999809265137,13.399999618530273,13.100000381469727,13.100000381469727,32865
13,2023-05-12,13.050000190734863,13.050000190734863,13.399999618530273,13.0,13.399999618530273,20811
14,2023-05-15,13.25,13.25,13.699999809265137,13.050000190734863,13.100000381469727,40407
15,2023-05-16,13.100000381469727,13.100000381469727,13.449999809265137,13.050000190734863,13.449999809265137,20477
16,2023-05-17,12.850000381469727,12.850000381469727,13.199999809265137,12.800000190734863,13.050000190734863,44517
17,2023-05-18,12.800000190734863,12.800000190734863,13.199999809265137,12.75,13.0,122584
18,2023-05-19,12.949999809265137,12.949999809265137,13.0,12.699999809265137,12.949999809265137,43391
19,2023-05-22,12.949999809265137,12.949999809265137,13.0,12.600000381469727,12.949999809265137,33677
20,2023-05-23,12.800000190734863,12.800000190734863,13.050000190734863,12.75,13.050000190734863,36906
21,2023-05-24,13.300000190734863,13.300000190734863,13.449999809265137,12.699999809265137,12.800000190734863,91142
22,2023-05-25,13.550000190734863,13.550000190734863,13.899999618530273,13.050000190734863,13.300000190734863,107762
23,2023-05-26,13.550000190734863,13.550000190734863,13.949999809265137,13.350000381469727,13.550000190734863,69704
24,2023-05-29,13.5,13.5,13.899999618530273,13.5,13.600000381469727,59427
25,2023-05-30,13.399999618530273,13.399999618530273,13.75,13.100000381469727,13.75,7102
26,2023-05-31,12.899999618530273,12.899999618530273,13.550000190734863,12.600000381469727,13.550000190734863,73407
27,2023-06-01,13.149999618530273,13.149999618530273,13.25,12.899999618530273,13.0,14121
28,2023-06-02,12.949999809265137,12.949999809265137,13.25,12.949999809265137,13.199999809265137,34554
29,2023-06-05,13.050000190734863,13.050000190734863,13.300000190734863,12.949999809265137,13.199999809265137,25800
30,2023-06-06,12.899999618530273,12.899999618530273,13.25,12.850000381469727,13.25,53223
31,2023-06-07,13.399999618530273,13.399999618530273,13.949999809265137,12.899999618530273,12.899999618530273,379055
32,2023-06-08,13.0,13.0,13.75,12.949999809265137,13.399999618530273,72170
33,2023-06-09,13.199999809265137,13.199999809265137,13.399999618530273,13.0,13.0,47457
34,2023-06-12,13.149999618530273,13.149999618530273,13.399999618530273,13.050000190734863,13.100000381469727,19511
35,2023-06-13,13.25,13.25,13.5,13.100000381469727,13.100000381469727,69487
36,2023-06-14,13.600000381469727,13.600000381469727,13.800000190734863,13.050000190734863,13.199999809265137,137447
37,2023-06-15,13.25,13.25,13.800000190734863,13.149999618530273,13.75,53466
38,2023-06-16,13.449999809265137,13.449999809265137,13.5,13.100000381469727,13.25,35712
39,2023-06-19,13.199999809265137,13.199999809265137,13.699999809265137,13.149999618530273,13.25,35306
40,2023-06-20,13.399999618530273,13.399999618530273,13.600000381469727,13.149999618530273,13.350000381469727,54384
41,2023-06-21,13.399999618530273,13.399999618530273,13.600000381469727,13.199999809265137,13.399999618530273,28021
42,2023-06-22,13.25,13.25,13.649999618530273,13.199999809265137,13.600000381469727,63592
43,2023-06-23,13.100000381469727,13.100000381469727,13.25,13.0,13.25,25770
44,2023-06-26,13.25,13.25,13.5,13.050000190734863,13.25,39287
45,2023-06-27,13.149999618530273,13.149999618530273,13.449999809265137,13.100000381469727,13.25,21179
46,2023-06-28,13.050000190734863,13.050000190734863,13.25,13.050000190734863,13.100000381469727,18003
47,2023-06-30,13.199999809265137,13.199999809265137,13.5,12.949999809265137,12.949999809265137,35450
48,2023-07-03,13.399999618530273,13.399999618530273,13.449999809265137,13.149999618530273,13.449999809265137,32766
49,2023-07-04,13.199999809265137,13.199999809265137,13.5,13.149999618530273,13.5,21348
50,2023-07-05,13.199999809265137,13.199999809265137,13.5,13.149999618530273,13.199999809265137,29920
51,2023-07-06,13.25,13.25,13.350000381469727,13.100000381469727,13.199999809265137,35865
52,2023-07-07,12.899999618530273,12.899999618530273,13.300000190734863,12.550000190734863,13.25,80502
53,2023-07-10,12.800000190734863,12.800000190734863,13.0,12.75,12.899999618530273,21224
54,2023-07-11,12.800000190734863,12.800000190734863,13.0,12.699999809265137,12.800000190734863,17037
55,2023-07-12,12.699999809265137,12.699999809265137,13.0,12.600000381469727,13.0,41933
56,2023-07-13,12.699999809265137,12.699999809265137,12.850000381469727,12.649999618530273,12.75,20198
57,2023-07-14,12.649999618530273,12.649999618530273,12.800000190734863,12.600000381469727,12.699999809265137,27678
58,2023-07-17,12.75,12.75,12.899999618530273,12.600000381469727,12.600000381469727,24144
59,2023-07-18,12.600000381469727,12.600000381469727,12.850000381469727,12.550000190734863,12.699999809265137,25982
60,2023-07-19,12.649999618530273,12.649999618530273,12.75,12.550000190734863,12.600000381469727,25872
61,2023-07-20,12.550000190734863,12.550000190734863,12.75,12.449999809265137,12.75,61917
62,2023-07-21,12.5,12.5,12.600000381469727,12.5,12.5,47815
63,2023-07-24,12.300000190734863,12.300000190734863,12.5,12.25,12.5,49225
64,2023-07-25,12.449999809265137,12.449999809265137,12.600000381469727,12.300000190734863,12.399999618530273,26571
65,2023-07-26,12.5,12.5,12.550000190734863,12.350000381469727,12.5,19922
66,2023-07-27,12.399999618530273,12.399999618530273,12.600000381469727,12.399999618530273,12.600000381469727,25966
67,2023-07-28,12.350000381469727,12.350000381469727,12.5,12.25,12.399999618530273,39887
68,2023-07-31,12.350000381469727,12.350000381469727,12.550000190734863,12.300000190734863,12.350000381469727,38504
69,2023-08-01,12.449999809265137,12.449999809265137,12.600000381469727,12.350000381469727,12.5,46949
70,2023-08-02,12.199999809265137,12.199999809265137,12.5,12.199999809265137,12.5,45963
71,2023-08-03,12.25,12.25,12.399999618530273,12.149999618530273,12.399999618530273,15672
72,2023-08-04,12.300000190734863,12.300000190734863,12.449999809265137,12.25,12.449999809265137,14086
73,2023-08-07,12.149999618530273,12.149999618530273,12.399999618530273,12.149999618530273,12.199999809265137,62814
74,2023-08-08,12.25,12.25,12.399999618530273,12.149999618530273,12.149999618530273,17359
75,2023-08-09,12.199999809265137,12.199999809265137,12.350000381469727,12.100000381469727,12.25,38536
76,2023-08-10,12.149999618530273,12.149999618530273,12.300000190734863,12.149999618530273,12.199999809265137,32586
77,2023-08-11,12.899999618530273,12.899999618530273,13.5,12.149999618530273,12.25,512852
78,2023-08-14,12.75,12.75,13.199999809265137,12.600000381469727,12.899999618530273,104174
79,2023-08-16,13.5,13.5,13.899999618530273,12.600000381469727,12.600000381469727,439086
80,2023-08-17,13.350000381469727,13.350000381469727,13.800000190734863,13.25,13.600000381469727,182585
81,2023-08-18,13.050000190734863,13.050000190734863,13.5,12.949999809265137,13.350000381469727,89271
82,2023-08-21,13.100000381469727,13.100000381469727,13.399999618530273,13.0,13.25,38510
83,2023-08-22,13.050000190734863,13.050000190734863,13.800000190734863,12.949999809265137,13.199999809265137,91362
84,2023-08-23,13.25,13.25,13.75,13.100000381469727,13.149999618530273,210215
85,2023-08-24,13.300000190734863,13.300000190734863,13.5,13.149999618530273,13.300000190734863,103660
86,2023-08-25,13.449999809265137,13.449999809265137,13.699999809265137,13.149999618530273,13.350000381469727,73262
87,2023-08-28,13.199999809265137,13.199999809265137,13.600000381469727,13.0,13.5,142296
88,2023-08-29,13.100000381469727,13.100000381469727,13.399999618530273,13.050000190734863,13.199999809265137,57892
89,2023-08-30,13.100000381469727,13.100000381469727,13.449999809265137,13.0,13.25,122109
90,2023-08-31,12.949999809265137,12.949999809265137,13.300000190734863,12.899999618530273,13.100000381469727,99024
91,2023-09-01,13.050000190734863,13.050000190734863,13.149999618530273,12.949999809265137,13.0,72154
92,2023-09-04,13.25,13.25,13.449999809265137,13.0,13.100000381469727,193449
93,2023-09-05,15.899999618530273,15.899999618530273,15.899999618530273,13.350000381469727,13.449999809265137,4035942
94,2023-09-06,16.75,16.75,17.399999618530273,15.050000190734863,16.100000381469727,2250822
95,2023-09-07,17.0,17.0,18.549999237060547,16.600000381469727,17.049999237060547,1367174
96,2023-09-08,16.25,16.25,17.399999618530273,16.100000381469727,17.399999618530273,426389
97,2023-09-11,16.149999618530273,16.149999618530273,16.649999618530273,16.049999237060547,16.5,138717
98,2023-09-12,14.949999809265137,14.949999809265137,16.350000381469727,14.800000190734863,16.350000381469727,333266
99,2023-09-13,15.649999618530273,15.649999618530273,15.800000190734863,14.550000190734863,14.850000381469727,221663
100,2023-09-14,15.550000190734863,15.550000190734863,16.0,15.5,15.949999809265137,81241
101,2023-09-15,16.200000762939453,16.200000762939453,16.5,15.399999618530273,15.5,340043
102,2023-09-18,15.75,15.75,16.450000762939453,15.5,16.450000762939453,97704
103,2023-09-20,15.199999809265137,15.199999809265137,15.699999809265137,15.050000190734863,15.699999809265137,123029
104,2023-09-21,15.199999809265137,15.199999809265137,15.75,15.100000381469727,15.149999618530273,71633
105,2023-09-22,15.050000190734863,15.050000190734863,15.399999618530273,14.949999809265137,15.199999809265137,51555
106,2023-09-25,15.399999618530273,15.399999618530273,15.649999618530273,15.149999618530273,15.300000190734863,75749
107,2023-09-26,15.100000381469727,15.100000381469727,15.5,15.050000190734863,15.5,130187
108,2023-09-27,15.0,15.0,15.399999618530273,14.800000190734863,15.300000190734863,56339
109,2023-09-28,14.800000190734863,14.800000190734863,15.300000190734863,14.75,15.0,91717
110,2023-09-29,14.699999809265137,14.699999809265137,15.0,14.600000381469727,14.800000190734863,34641
111,2023-10-03,14.850000381469727,14.850000381469727,15.0,14.600000381469727,14.800000190734863,39180
112,2023-10-04,14.949999809265137,14.949999809265137,15.0,14.800000190734863,15.0,50070
113,2023-10-05,14.699999809265137,14.699999809265137,15.0,14.550000190734863,14.899999618530273,32080
114,2023-10-06,15.050000190734863,15.050000190734863,15.25,14.75,14.949999809265137,49813
115,2023-10-09,14.699999809265137,14.699999809265137,15.149999618530273,14.600000381469727,15.050000190734863,38518
116,2023-10-10,14.600000381469727,14.600000381469727,15.050000190734863,14.399999618530273,14.899999618530273,69657
117,2023-10-11,16.149999618530273,16.149999618530273,16.299999237060547,14.600000381469727,14.649999618530273,721276
118,2023-10-12,15.899999618530273,15.899999618530273,16.399999618530273,15.5,16.399999618530273,198664
119,2023-10-13,15.550000190734863,15.550000190734863,16.0,15.5,16.0,105239
120,2023-10-16,15.399999618530273,15.399999618530273,16.0,15.149999618530273,15.800000190734863,205377
121,2023-10-17,15.350000381469727,15.350000381469727,15.699999809265137,15.25,15.449999809265137,93352
122,2023-10-18,15.100000381469727,15.100000381469727,15.5,14.949999809265137,15.350000381469727,108343
123,2023-10-19,14.949999809265137,14.949999809265137,15.199999809265137,14.800000190734863,15.100000381469727,83492
124,2023-10-20,15.0,15.0,15.399999618530273,14.800000190734863,15.050000190734863,42346
125,2023-10-23,13.800000190734863,13.800000190734863,15.199999809265137,13.550000190734863,15.199999809265137,97044
126,2023-10-25,14.050000190734863,14.050000190734863,14.550000190734863,13.800000190734863,14.050000190734863,422522
127,2023-10-26,13.5,13.5,14.100000381469727,13.25,13.850000381469727,142623
128,2023-10-27,13.699999809265137,13.699999809265137,14.100000381469727,13.5,13.5,328751
129,2023-10-30,13.75,13.75,14.100000381469727,13.649999618530273,13.699999809265137,229545
130,2023-10-31,13.800000190734863,13.800000190734863,13.949999809265137,13.600000381469727,13.75,42043
131,2023-11-01,13.800000190734863,13.800000190734863,14.100000381469727,13.699999809265137,14.0,276966
132,2023-11-02,13.899999618530273,13.899999618530273,14.199999809265137,13.800000190734863,13.800000190734863,500116
133,2023-11-03,14.050000190734863,14.050000190734863,14.399999618530273,14.0,14.100000381469727,255031
134,2023-11-06,14.5,14.5,14.699999809265137,14.0,14.0,814688
135,2023-11-07,14.449999809265137,14.449999809265137,14.699999809265137,14.399999618530273,14.699999809265137,156940
136,2023-11-08,14.800000190734863,14.800000190734863,15.050000190734863,14.600000381469727,14.75,431103
137,2023-11-09,14.449999809265137,14.449999809265137,15.050000190734863,14.350000381469727,14.75,635529
138,2023-11-10,15.649999618530273,15.649999618530273,16.200000762939453,14.449999809265137,14.649999618530273,1345542
139,2023-11-13,15.449999809265137,15.449999809265137,15.800000190734863,15.300000190734863,15.699999809265137,327788
140,2023-11-15,15.350000381469727,15.350000381469727,15.75,15.25,15.5,473832
141,2023-11-16,15.199999809265137,15.199999809265137,15.449999809265137,15.050000190734863,15.350000381469727,872176
142,2023-11-17,15.5,15.5,15.75,14.949999809265137,15.100000381469727,955462
143,2023-11-20,16.950000762939453,16.950000762939453,17.799999237060547,15.350000381469727,15.350000381469727,2020875
144,2023-11-21,17.950000762939453,17.950000762939453,18.200000762939453,17.299999237060547,17.75,1713511
145,2023-11-22,16.700000762939453,16.700000762939453,18.149999618530273,16.399999618530273,18.149999618530273,653775
146,2023-11-23,16.700000762939453,16.700000762939453,17.149999618530273,16.5,16.700000762939453,274110
147,2023-11-24,17.049999237060547,17.049999237060547,17.299999237060547,16.799999237060547,16.899999618530273,498725
148,2023-11-28,16.75,16.75,17.5,16.600000381469727,17.450000762939453,705319
149,2023-11-29,16.549999237060547,16.549999237060547,17.0,16.5,17.0,734543
150,2023-11-30,15.949999809265137,15.949999809265137,16.75,15.800000190734863,16.600000381469727,525311
151,2023-12-01,16.149999618530273,16.149999618530273,16.5,15.899999618530273,16.200000762939453,484883
152,2023-12-04,16.149999618530273,16.149999618530273,16.5,16.049999237060547,16.5,77410
153,2023-12-05,16.049999237060547,16.049999237060547,16.350000381469727,15.75,16.299999237060547,221430
154,2023-12-06,17.0,17.0,17.600000381469727,16.350000381469727,16.399999618530273,972702
155,2023-12-07,17.100000381469727,17.100000381469727,17.649999618530273,16.5,17.200000762939453,323111
156,2023-12-08,16.75,16.75,17.350000381469727,16.649999618530273,17.350000381469727,146779
157,2023-12-11,16.549999237060547,16.549999237060547,17.0,16.450000762939453,17.0,219606
158,2023-12-12,16.450000762939453,16.450000762939453,16.950000762939453,16.350000381469727,16.75,192802
159,2023-12-13,16.399999618530273,16.399999618530273,16.75,16.200000762939453,16.600000381469727,132498
160,2023-12-14,16.350000381469727,16.350000381469727,16.799999237060547,16.149999618530273,16.5,155896
161,2023-12-15,16.200000762939453,16.200000762939453,16.5,16.149999618530273,16.5,81797
162,2023-12-18,18.899999618530273,18.899999618530273,19.399999618530273,16.25,16.25,2511418
163,2023-12-19,18.950000762939453,18.950000762939453,19.799999237060547,18.049999237060547,19.600000381469727,1926599
164,2023-12-20,18.149999618530273,18.149999618530273,19.799999237060547,17.899999618530273,18.700000762939453,1198050
165,2023-12-21,18.950000762939453,18.950000762939453,19.299999237060547,17.600000381469727,18.399999618530273,753780
166,2023-12-22,18.350000381469727,18.350000381469727,19.350000381469727,18.149999618530273,19.350000381469727,283104
167,2023-12-26,18.200000762939453,18.200000762939453,18.850000381469727,17.75,18.600000381469727,254886
168,2023-12-27,17.5,17.5,18.700000762939453,17.299999237060547,18.25,285999
169,2023-12-28,16.649999618530273,16.649999618530273,17.700000762939453,16.5,17.600000381469727,429151
170,2023-12-29,17.5,17.5,17.950000762939453,16.75,16.799999237060547,225203
171,2024-01-01,18.299999237060547,18.299999237060547,19.049999237060547,17.549999237060547,17.700000762939453,536360
172,2024-01-02,20.25,20.25,20.799999237060547,18.450000762939453,18.75,2746516
173,2024-01-03,19.850000381469727,19.850000381469727,20.700000762939453,19.600000381469727,20.450000762939453,615802
174,2024-01-04,19.549999237060547,19.549999237060547,20.200000762939453,19.450000762939453,19.899999618530273,357173
175,2024-01-05,19.25,19.25,19.799999237060547,18.399999618530273,19.600000381469727,570521
176,2024-01-08,19.649999618530273,19.649999618530273,20.200000762939453,19.049999237060547,19.25,542363
177,2024-01-09,20.350000381469727,20.350000381469727,20.700000762939453,19.25,19.799999237060547,692641
178,2024-01-10,19.950000762939453,19.950000762939453,20.450000762939453,19.799999237060547,20.049999237060547,359423
179,2024-01-11,19.700000762939453,19.700000762939453,20.200000762939453,19.450000762939453,19.950000762939453,178537
180,2024-01-12,19.350000381469727,19.350000381469727,20.399999618530273,19.200000762939453,19.700000762939453,395051
181,2024-01-15,19.950000762939453,19.950000762939453,20.549999237060547,19.299999237060547,19.450000762939453,545691
182,2024-01-16,19.549999237060547,19.549999237060547,20.600000381469727,19.0,20.549999237060547,438396
183,2024-01-17,19.149999618530273,19.149999618530273,19.799999237060547,18.850000381469727,19.549999237060547,172470
184,2024-01-18,19.200000762939453,19.200000762939453,19.799999237060547,18.399999618530273,19.049999237060547,199832
185,2024-01-19,19.75,19.75,20.399999618530273,19.149999618530273,19.399999618530273,464185
186,2024-01-23,18.25,18.25,19.75,17.899999618530273,19.5,307197
187,2024-01-24,17.899999618530273,17.899999618530273,18.600000381469727,17.700000762939453,18.299999237060547,522103
188,2024-01-25,18.549999237060547,18.549999237060547,18.950000762939453,18.0,18.049999237060547,505999
189,2024-01-29,18.549999237060547,18.549999237060547,19.350000381469727,18.350000381469727,18.850000381469727,473863
190,2024-01-30,19.299999237060547,19.299999237060547,19.899999618530273,18.100000381469727,18.799999237060547,881136
191,2024-01-31,18.950000762939453,18.950000762939453,19.799999237060547,18.850000381469727,19.299999237060547,461047
192,2024-02-01,18.649999618530273,18.649999618530273,19.399999618530273,18.5,19.25,328657
193,2024-02-02,18.5,18.5,19.200000762939453,18.399999618530273,18.850000381469727,312814
194,2024-02-05,18.149999618530273,18.149999618530273,19.350000381469727,18.0,18.700000762939453,255041
195,2024-02-06,21.75,21.75,21.75,18.0,18.450000762939453,4434228
196,2024-02-07,23.049999237060547,23.049999237060547,24.350000381469727,20.5,21.899999618530273,6061557
197,2024-02-08,23.350000381469727,23.350000381469727,23.899999618530273,22.399999618530273,23.700000762939453,1453883
198,2024-02-09,21.950000762939453,21.950000762939453,24.0,21.0,24.0,1023722
199,2024-02-12,19.649999618530273,19.649999618530273,22.399999618530273,19.299999237060547,22.0,702268
200,2024-02-13,19.25,19.25,20.149999618530273,18.700000762939453,19.049999237060547,471798
201,2024-02-14,20.25,20.25,20.399999618530273,18.850000381469727,18.850000381469727,410323
202,2024-02-15,20.700000762939453,20.700000762939453,21.200000762939453,20.450000762939453,20.850000381469727,326424
203,2024-02-16,21.25,21.25,21.700000762939453,20.850000381469727,21.049999237060547,374675
204,2024-02-19,20.700000762939453,20.700000762939453,21.649999618530273,20.600000381469727,21.649999618530273,221074
205,2024-02-20,20.149999618530273,20.149999618530273,21.149999618530273,20.0,20.700000762939453,259170
206,2024-02-21,19.700000762939453,19.700000762939453,21.0,19.450000762939453,20.25,426046
207,2024-02-22,20.350000381469727,20.350000381469727,20.850000381469727,19.200000762939453,19.899999618530273,471362
208,2024-02-23,19.899999618530273,19.899999618530273,20.700000762939453,19.799999237060547,20.5,205478
209,2024-02-26,19.200000762939453,19.200000762939453,20.100000381469727,19.0,20.0,349526
210,2024-02-27,18.899999618530273,18.899999618530273,19.950000762939453,18.549999237060547,19.350000381469727,351210
211,2024-02-28,18.299999237060547,18.299999237060547,19.299999237060547,17.899999618530273,19.0,353315
212,2024-02-29,18.350000381469727,18.350000381469727,18.5,17.950000762939453,18.299999237060547,104803
213,2024-03-01,19.149999618530273,19.149999618530273,19.350000381469727,18.299999237060547,18.549999237060547,375337
214,2024-03-04,19.600000381469727,19.600000381469727,20.5,18.600000381469727,19.299999237060547,1032288
215,2024-03-05,19.399999618530273,19.399999618530273,20.700000762939453,19.149999618530273,19.600000381469727,430469
216,2024-03-06,18.850000381469727,18.850000381469727,19.600000381469727,18.350000381469727,19.5,259658
217,2024-03-07,18.75,18.75,19.200000762939453,18.600000381469727,18.600000381469727,93568
218,2024-03-11,18.200000762939453,18.200000762939453,18.950000762939453,17.899999618530273,18.950000762939453,166822
219,2024-03-12,16.850000381469727,16.850000381469727,18.25,16.600000381469727,18.149999618530273,278542
220,2024-03-13,15.399999618530273,15.399999618530273,17.049999237060547,15.199999809265137,16.600000381469727,326514
221,2024-03-14,15.75,15.75,16.149999618530273,14.800000190734863,15.300000190734863,323350
222,2024-03-15,15.899999618530273,15.899999618530273,16.299999237060547,15.550000190734863,15.899999618530273,139280
223,2024-03-18,15.949999809265137,15.949999809265137,16.299999237060547,15.600000381469727,15.649999618530273,101099
224,2024-03-19,15.350000381469727,15.350000381469727,16.100000381469727,15.149999618530273,15.649999618530273,156688
225,2024-03-20,14.899999618530273,14.899999618530273,15.649999618530273,14.550000190734863,15.25,175876
226,2024-03-21,16.049999237060547,16.049999237060547,16.5,14.949999809265137,15.0,618976
227,2024-03-22,15.75,15.75,16.149999618530273,15.600000381469727,16.049999237060547,155728
228,2024-03-26,15.5,15.5,16.149999618530273,15.399999618530273,16.0,123171
229,2024-03-27,14.800000190734863,14.800000190734863,15.75,14.5,15.399999618530273,307388
230,2024-03-28,14.649999618530273,14.649999618530273,15.449999809265137,14.550000190734863,15.0,164925
231,2024-04-01,16.100000381469727,16.100000381469727,16.200000762939453,14.399999618530273,14.5,220502
232,2024-04-02,16.600000381469727,16.600000381469727,16.75,15.800000190734863,16.049999237060547,154019
233,2024-04-03,17.299999237060547,17.299999237060547,17.600000381469727,16.549999237060547,16.950000762939453,301469
234,2024-04-04,19.549999237060547,19.549999237060547,20.200000762939453,17.100000381469727,17.950000762939453,1437274
235,2024-04-05,20.850000381469727,20.850000381469727,21.25,18.799999237060547,19.549999237060547,1624947
236,2024-04-08,19.75,19.75,21.549999237060547,19.600000381469727,21.549999237060547,367879
237,2024-04-09,19.5,19.5,20.899999618530273,19.399999618530273,19.950000762939453,248792
238,2024-04-10,19.350000381469727,19.350000381469727,20.200000762939453,19.200000762939453,19.549999237060547,168929
239,2024-04-12,18.899999618530273,18.899999618530273,19.899999618530273,18.299999237060547,19.049999237060547,238854
240,2024-04-15,19.100000381469727,19.100000381469727,19.299999237060547,17.299999237060547,17.799999237060547,367991
241,2024-04-16,21.0,21.0,21.0,18.5,19.100000381469727,1304407
242,2024-04-18,22.149999618530273,22.149999618530273,23.100000381469727,21.149999618530273,21.399999618530273,1986566
243,2024-04-19,22.100000381469727,22.100000381469727,22.25,20.899999618530273,22.0,346575
244,2024-04-22,22.450000762939453,22.450000762939453,23.200000762939453,21.600000381469727,23.049999237060547,371283
245,2024-04-23,22.049999237060547,22.049999237060547,22.899999618530273,21.799999237060547,22.049999237060547,245867
246,2024-04-24,22.0,22.0,22.5,21.899999618530273,22.0,287056
247,2024-04-25,21.350000381469727,21.350000381469727,22.25,21.0,22.25,173168
248,2024-04-26,21.600000381469727,21.600000381469727,21.799999237060547,21.350000381469727,21.350000381469727,106113
249,2024-04-29,21.700000762939453,21.700000762939453,21.950000762939453,21.5,21.950000762939453,117777
250,2024-04-30,22.049999237060547,22.049999237060547,22.700000762939453,21.649999618530273,22.0,256537
251,2024-05-02,22.899999618530273,22.899999618530273,23.25,21.149999618530273,22.350000381469727,800970
252,2024-05-03,22.600000381469727,22.600000381469727,23.0,22.399999618530273,22.950000762939453,178059
253,2024-05-06,22.450000762939453,22.450000762939453,22.850000381469727,22.149999618530273,22.75,193243
254,2024-05-07,22.100000381469727,22.100000381469727,23.0,21.799999237060547,23.0,146988
255,2024-05-08,22.049999237060547,22.049999237060547,22.700000762939453,21.950000762939453,22.5,86039
256,2024-05-09,20.799999237060547,20.799999237060547,22.25,20.149999618530273,22.200000762939453,112511
257,2024-05-10,20.600000381469727,20.600000381469727,20.850000381469727,20.149999618530273,20.399999618530273,42582
258,2024-05-13,20.200000762939453,20.200000762939453,20.850000381469727,19.600000381469727,20.600000381469727,52836
259,2024-05-14,21.549999237060547,21.549999237060547,22.049999237060547,19.700000762939453,19.799999237060547,173093
260,2024-05-15,21.5,21.5,22.25,21.0,21.75,73362
261,2024-05-16,21.049999237060547,21.049999237060547,21.899999618530273,21.0,21.899999618530273,55536
262,2024-05-17,21.450000762939453,21.450000762939453,22.200000762939453,20.600000381469727,20.600000381469727,160020
263,2024-05-21,21.25,21.25,22.0,20.5,21.0,167699
264,2024-05-22,21.0,21.0,21.450000762939453,20.700000762939453,21.399999618530273,65009
265,2024-05-23,20.700000762939453,20.700000762939453,21.350000381469727,20.600000381469727,21.049999237060547,44899
266,2024-05-24,20.549999237060547,20.549999237060547,21.049999237060547,20.299999237060547,20.950000762939453,45103
267,2024-05-27,20.25,20.25,20.899999618530273,20.100000381469727,20.600000381469727,58758
268,2024-05-28,19.899999618530273,19.899999618530273,20.450000762939453,19.850000381469727,20.0,46062
269,2024-05-29,20.700000762939453,20.700000762939453,21.100000381469727,19.700000762939453,19.700000762939453,109213
270,2024-05-30,20.100000381469727,20.100000381469727,21.100000381469727,19.649999618530273,20.950000762939453,68494
271,2024-05-31,19.700000762939453,19.700000762939453,20.299999237060547,19.549999237060547,20.0,64092
272,2024-06-03,19.799999237060547,19.799999237060547,20.450000762939453,19.649999618530273,19.75,46103
273,2024-06-04,18.350000381469727,18.350000381469727,20.149999618530273,17.850000381469727,20.149999618530273,220207
274,2024-06-05,18.299999237060547,18.299999237060547,18.899999618530273,17.5,18.350000381469727,96204
275,2024-06-06,19.549999237060547,19.549999237060547,19.850000381469727,18.350000381469727,18.450000762939453,83179
276,2024-06-07,20.0,20.0,21.5,19.399999618530273,19.899999618530273,186798
277,2024-06-10,20.209999084472656,20.209999084472656,20.899999618530273,20.010000228881836,20.899999618530273,53281
278,2024-06-11,20.209999084472656,20.209999084472656,20.799999237060547,19.8700008392334,20.3799991607666,66456
279,2024-06-12,19.969999313354492,19.969999313354492,20.5,19.559999465942383,20.25,82620
280,2024-06-13,19.90999984741211,19.90999984741211,20.280000686645508,19.850000381469727,20.280000686645508,41243
281,2024-06-14,20.020000457763672,20.020000457763672,20.899999618530273,19.8799991607666,19.950000762939453,186163
282,2024-06-18,19.6299991607666,19.6299991607666,20.489999771118164,19.5,20.049999237060547,124568
283,2024-06-19,19.18000030517578,19.18000030517578,19.850000381469727,19.010000228881836,19.850000381469727,76697
284,2024-06-20,19.09000015258789,19.09000015258789,19.579999923706055,19.0,19.3799991607666,120780
285,2024-06-21,19.459999084472656,19.459999084472656,19.530000686645508,19.049999237060547,19.299999237060547,77355
286,2024-06-24,19.459999084472656,19.459999084472656,20.139999389648438,19.399999618530273,19.649999618530273,127706
287,2024-06-25,19.31999969482422,19.31999969482422,19.899999618530273,19.260000228881836,19.489999771118164,89751
288,2024-06-26,19.530000686645508,19.530000686645508,19.8700008392334,19.0,19.299999237060547,137472
289,2024-06-27,19.56999969482422,19.56999969482422,19.639999389648438,19.360000610351562,19.530000686645508,88836
290,2024-06-28,19.610000610351562,19.610000610351562,19.790000915527344,19.170000076293945,19.790000915527344,135717
291,2024-07-01,20.5,20.5,20.75,19.6200008392334,19.739999771118164,204523
292,2024-07-02,21.15999984741211,21.15999984741211,21.799999237060547,20.020000457763672,20.510000228881836,666799
293,2024-07-03,20.93000030517578,20.93000030517578,21.790000915527344,20.899999618530273,21.479999542236328,147120
294,2024-07-04,20.280000686645508,20.280000686645508,21.18000030517578,20.149999618530273,20.799999237060547,47598
295,2024-07-05,21.020000457763672,21.020000457763672,21.799999237060547,20.100000381469727,20.700000762939453,168096
296,2024-07-08,21.020000457763672,21.020000457763672,21.920000076293945,20.5,21.440000534057617,289215
297,2024-07-09,20.969999313354492,20.969999313354492,21.989999771118164,20.950000762939453,21.239999771118164,160139
298,2024-07-10,20.6200008392334,20.6200008392334,21.229999542236328,20.299999237060547,21.229999542236328,76323
299,2024-07-11,20.34000015258789,20.34000015258789,20.950000762939453,20.299999237060547,20.950000762939453,61478
300,2024-07-12,21.100000381469727,21.100000381469727,21.399999618530273,20.25,20.25,149216
301,2024-07-15,20.729999542236328,20.729999542236328,21.469999313354492,20.579999923706055,21.469999313354492,62068
302,2024-07-16,20.270000457763672,20.270000457763672,20.969999313354492,20.1200008392334,20.969999313354492,83161
303,2024-07-18,20.469999313354492,20.469999313354492,21.25,19.809999465942383,20.31999969482422,199309
304,2024-07-19,20.06999969482422,20.06999969482422,20.700000762939453,19.809999465942383,20.670000076293945,83057
305,2024-07-22,19.84000015258789,19.84000015258789,20.06999969482422,19.799999237060547,19.950000762939453,36919
306,2024-07-23,19.75,19.75,20.239999771118164,19.0,19.850000381469727,188638
307,2024-07-24,21.600000381469727,21.600000381469727,21.719999313354492,19.520000457763672,19.520000457763672,602057
308,2024-07-25,21.739999771118164,21.739999771118164,23.270000457763672,21.049999237060547,21.5,791043
309,2024-07-26,21.25,21.25,22.190000534057617,21.1200008392334,21.739999771118164,112955
310,2024-07-29,20.959999084472656,20.959999084472656,21.459999084472656,20.610000610351562,21.059999465942383,101884
311,2024-07-30,21.1299991607666,21.1299991607666,21.649999618530273,20.520000457763672,20.520000457763672,72161
312,2024-07-31,20.829999923706055,20.829999923706055,21.43000030517578,20.700000762939453,21.0,91101
313,2024-08-01,20.459999084472656,20.459999084472656,21.389999389648438,20.25,21.389999389648438,86999
314,2024-08-02,20.770000457763672,20.770000457763672,20.959999084472656,19.860000610351562,20.5,100794
315,2024-08-05,19.850000381469727,19.850000381469727,20.520000457763672,19.389999389648438,20.520000457763672,187224
316,2024-08-06,19.399999618530273,19.399999618530273,20.389999389648438,19.110000610351562,20.25,66892
317,2024-08-07,20.299999237060547,20.299999237060547,21.450000762939453,19.020000457763672,19.670000076293945,310962
318,2024-08-08,20.1200008392334,20.1200008392334,20.860000610351562,20.0,20.049999237060547,36935
319,2024-08-09,21.829999923706055,21.829999923706055,22.780000686645508,20.200000762939453,20.530000686645508,923112
320,2024-08-12,21.3799991607666,21.3799991607666,22.399999618530273,21.229999542236328,21.989999771118164,263170
321,2024-08-13,20.309999465942383,20.309999465942383,21.780000686645508,20.200000762939453,21.780000686645508,96181
322,2024-08-14,19.940000534057617,19.940000534057617,20.59000015258789,19.809999465942383,20.3700008392334,41942
323,2024-08-16,20.110000610351562,20.110000610351562,20.440000534057617,19.950000762939453,19.950000762939453,42862
324,2024-08-19,22.389999389648438,22.389999389648438,22.799999237060547,19.84000015258789,20.34000015258789,564336
325,2024-08-20,23.530000686645508,23.530000686645508,25.350000381469727,21.739999771118164,25.0,3481112
326,2024-08-21,23.040000915527344,23.040000915527344,24.84000015258789,22.799999237060547,23.5,896280
327,2024-08-22,22.610000610351562,22.610000610351562,23.899999618530273,22.510000228881836,23.3700008392334,161195
328,2024-08-23,22.25,22.25,23.489999771118164,21.899999618530273,22.600000381469727,367057
329,2024-08-26,22.639999389648438,22.639999389648438,23.450000762939453,22.100000381469727,22.700000762939453,98490
330,2024-08-27,21.530000686645508,21.530000686645508,22.8799991607666,21.020000457763672,22.8799991607666,221554
331,2024-08-28,20.979999542236328,20.979999542236328,21.989999771118164,20.81999969482422,21.68000030517578,202537
332,2024-08-29,20.729999542236328,20.729999542236328,21.799999237060547,20.649999618530273,21.190000534057617,139786
333,2024-08-30,20.979999542236328,20.979999542236328,21.440000534057617,20.059999465942383,20.93000030517578,521817
334,2024-09-02,22.139999389648438,22.139999389648438,22.739999771118164,20.850000381469727,21.299999237060547,637951
335,2024-09-03,22.579999923706055,22.579999923706055,22.809999465942383,22.0,22.540000915527344,282024
336,2024-09-04,22.010000228881836,22.010000228881836,22.479999542236328,21.6200008392334,21.6200008392334,91885
337,2024-09-05,21.979999542236328,21.979999542236328,22.739999771118164,21.850000381469727,22.0,185383
338,2024-09-06,21.969999313354492,21.969999313354492,22.489999771118164,21.549999237060547,22.170000076293945,269622
339,2024-09-09,21.790000915527344,21.790000915527344,22.219999313354492,21.520000457763672,21.959999084472656,121701
340,2024-09-10,21.950000762939453,21.950000762939453,22.290000915527344,21.729999542236328,21.729999542236328,64646
341,2024-09-11,22.030000686645508,22.030000686645508,22.469999313354492,21.950000762939453,21.950000762939453,112487
342,2024-09-12,21.559999465942383,21.559999465942383,22.299999237060547,21.450000762939453,22.06999969482422,85942
343,2024-09-13,21.959999084472656,21.959999084472656,22.5,21.600000381469727,21.8799991607666,401079
344,2024-09-16,21.829999923706055,21.829999923706055,22.399999618530273,21.809999465942383,22.3799991607666,85258
345,2024-09-17,21.780000686645508,21.780000686645508,22.0,21.5,21.5,58868
346,2024-09-18,21.149999618530273,21.149999618530273,21.959999084472656,20.799999237060547,21.959999084472656,179999
347,2024-09-19,20.530000686645508,20.530000686645508,21.440000534057617,20.450000762939453,21.43000030517578,138484
348,2024-09-20,21.09000015258789,21.09000015258789,21.399999618530273,20.68000030517578,20.989999771118164,123072
349,2024-09-23,20.90999984741211,20.90999984741211,21.100000381469727,20.850000381469727,21.100000381469727,50349
350,2024-09-24,20.8700008392334,20.8700008392334,21.450000762939453,20.649999618530273,20.959999084472656,81450
351,2024-09-25,20.020000457763672,20.020000457763672,20.989999771118164,19.969999313354492,20.979999542236328,267600
352,2024-09-26,20.190000534057617,20.190000534057617,20.489999771118164,19.989999771118164,20.280000686645508,111644
353,2024-09-27,20.15999984741211,20.15999984741211,20.639999389648438,20.020000457763672,20.639999389648438,64691
354,2024-09-30,20.149999618530273,20.149999618530273,20.600000381469727,20.0,20.15999984741211,159350
355,2024-10-01,20.709999084472656,20.709999084472656,21.0,20.049999237060547,20.280000686645508,200887
356,2024-10-03,20.190000534057617,20.190000534057617,20.979999542236328,20.110000610351562,20.979999542236328,85454
357,2024-10-04,19.610000610351562,19.610000610351562,20.489999771118164,19.450000762939453,20.190000534057617,139100
358,2024-10-07,18.770000457763672,18.770000457763672,19.8700008392334,18.610000610351562,19.8700008392334,107194
359,2024-10-08,19.280000686645508,19.280000686645508,19.68000030517578,18.690000534057617,19.0,68949
360,2024-10-09,20.280000686645508,20.280000686645508,20.65999984741211,19.309999465942383,19.65999984741211,167954
361,2024-10-10,20.309999465942383,20.309999465942383,20.889999389648438,20.149999618530273,20.440000534057617,125314
362,2024-10-11,19.920000076293945,19.920000076293945,20.59000015258789,19.81999969482422,20.440000534057617,61127
363,2024-10-14,19.8799991607666,19.8799991607666,20.25,19.649999618530273,20.25,83934
364,2024-10-15,19.579999923706055,19.579999923706055,20.0,19.520000457763672,19.549999237060547,40402
365,2024-10-16,19.270000457763672,19.270000457763672,19.75,19.0,19.75,79476
366,2024-10-17,18.940000534057617,18.940000534057617,19.469999313354492,18.799999237060547,19.270000457763672,71043
367,2024-10-18,19.059999465942383,19.059999465942383,19.190000534057617,18.649999618530273,18.81999969482422,42771
368,2024-10-21,18.719999313354492,18.719999313354492,19.440000534057617,18.700000762939453,19.440000534057617,23218
369,2024-10-22,18.049999237060547,18.049999237060547,18.90999984741211,18.010000228881836,18.75,31415
370,2024-10-23,17.520000457763672,17.520000457763672,18.389999389648438,17.219999313354492,18.0,145645
371,2024-10-24,17.84000015258789,17.84000015258789,17.979999542236328,17.1200008392334,17.329999923706055,76989
372,2024-10-25,17.399999618530273,17.399999618530273,17.850000381469727,17.25,17.84000015258789,49865
373,2024-10-28,17.229999542236328,17.229999542236328,17.8700008392334,17.100000381469727,17.100000381469727,51233
374,2024-10-29,17.09000015258789,17.09000015258789,17.790000915527344,16.90999984741211,17.790000915527344,62044
375,2024-10-30,17.709999084472656,17.709999084472656,17.950000762939453,17.09000015258789,17.450000762939453,50401
376,2024-10-31,17.959999084472656,17.959999084472656,18.5,17.40999984741211,17.40999984741211,68500
377,2024-11-01,18.6200008392334,18.6200008392334,18.770000457763672,18.020000457763672,18.479999542236328,27538
378,2024-11-04,19.209999084472656,19.209999084472656,20.100000381469727,18.889999389648438,19.049999237060547,143263
379,2024-11-05,19.3799991607666,19.3799991607666,19.959999084472656,19.260000228881836,19.260000228881836,76329
380,2024-11-06,19.469999313354492,19.469999313354492,19.690000534057617,18.860000610351562,19.399999618530273,46019
381,2024-11-07,19.09000015258789,19.09000015258789,19.510000228881836,18.920000076293945,19.479999542236328,25913
382,2024-11-08,18.770000457763672,18.770000457763672,19.190000534057617,18.600000381469727,19.190000534057617,35145
383,2024-11-11,19.079999923706055,19.079999923706055,19.299999237060547,18.899999618530273,19.149999618530273,28894
384,2024-11-12,18.229999542236328,18.229999542236328,19.239999771118164,18.0,19.239999771118164,37599
385,2024-11-13,17.229999542236328,17.229999542236328,18.219999313354492,17.110000610351562,18.219999313354492,57046
386,2024-11-14,17.579999923706055,17.579999923706055,17.719999313354492,17.299999237060547,17.579999923706055,23935
387,2024-11-18,16.920000076293945,16.920000076293945,17.700000762939453,16.6200008392334,17.579999923706055,49551
388,2024-11-19,16.959999084472656,16.959999084472656,17.639999389648438,16.770000457763672,17.229999542236328,74298
389,2024-11-21,16.329999923706055,16.329999923706055,17.1200008392334,16.200000762939453,16.799999237060547,54297
390,2024-11-22,16.709999084472656,16.709999084472656,16.84000015258789,16.3700008392334,16.600000381469727,24507
391,2024-11-25,17.149999618530273,17.149999618530273,17.549999237060547,16.989999771118164,16.989999771118164,67404
392,2024-11-26,17.149999618530273,17.149999618530273,17.549999237060547,16.200000762939453,17.489999771118164,39957
393,2024-11-27,17.329999923706055,17.329999923706055,17.59000015258789,17.15999984741211,17.440000534057617,23814
394,2024-11-28,17.719999313354492,17.719999313354492,18.100000381469727,17.309999465942383,17.690000534057617,55293
395,2024-11-29,17.889999389648438,17.889999389648438,18.399999618530273,17.65999984741211,17.979999542236328,22201
396,2024-12-02,18.860000610351562,18.860000610351562,19.34000015258789,18.010000228881836,18.299999237060547,169219
397,2024-12-03,18.989999771118164,18.989999771118164,19.209999084472656,18.709999084472656,18.959999084472656,68582
398,2024-12-04,19.0,19.0,20.0,18.610000610351562,18.639999389648438,84265
399,2024-12-05,19.34000015258789,19.34000015258789,19.549999237060547,18.700000762939453,19.0,43020
400,2024-12-06,19.149999618530273,19.149999618530273,19.600000381469727,18.950000762939453,19.489999771118164,65135
401,2024-12-09,19.700000762939453,19.700000762939453,20.75,19.149999618530273,19.149999618530273,265881
402,2024-12-10,19.559999465942383,19.559999465942383,19.93000030517578,19.299999237060547,19.889999389648438,51141
403,2024-12-11,19.299999237060547,19.299999237060547,19.739999771118164,19.25,19.700000762939453,36732
404,2024-12-12,19.209999084472656,19.209999084472656,19.5,19.06999969482422,19.5,86996
405,2024-12-13,19.0,19.0,19.479999542236328,18.739999771118164,19.209999084472656,44201
406,2024-12-16,19.559999465942383,19.559999465942383,20.1299991607666,18.829999923706055,18.829999923706055,145246
407,2024-12-17,18.950000762939453,18.950000762939453,19.639999389648438,18.760000228881836,19.0,55572
408,2024-12-18,18.68000030517578,18.68000030517578,19.43000030517578,18.600000381469727,18.700000762939453,36704
409,2024-12-19,18.809999465942383,18.809999465942383,19.030000686645508,18.459999084472656,18.68000030517578,87725
410,2024-12-20,18.75,18.75,19.100000381469727,18.709999084472656,18.989999771118164,78285
411,2024-12-23,18.15999984741211,18.15999984741211,18.93000030517578,18.100000381469727,18.75,51379
412,2024-12-24,17.969999313354492,17.969999313354492,18.299999237060547,17.309999465942383,18.049999237060547,53752
413,2024-12-26,17.780000686645508,17.780000686645508,18.079999923706055,17.520000457763672,17.520000457763672,24032
414,2024-12-27,17.829999923706055,17.829999923706055,17.989999771118164,17.549999237060547,17.549999237060547,26303
415,2024-12-30,17.6299991607666,17.6299991607666,17.920000076293945,17.530000686645508,17.530000686645508,28077
416,2024-12-31,18.18000030517578,18.18000030517578,18.969999313354492,17.350000381469727,17.360000610351562,10838
417,2025-01-01,18.18000030517578,18.18000030517578,18.790000915527344,18.110000610351562,18.200000762939453,79880
418,2025-01-02,18.520000457763672,18.520000457763672,18.68000030517578,18.18000030517578,18.479999542236328,22543
419,2025-01-03,18.299999237060547,18.299999237060547,18.989999771118164,18.170000076293945,18.440000534057617,37626
420,2025-01-06,17.440000534057617,17.440000534057617,18.389999389648438,17.3799991607666,18.170000076293945,42507
421,2025-01-07,18.010000228881836,18.010000228881836,18.149999618530273,17.56999969482422,17.56999969482422,36407
422,2025-01-08,18.010000228881836,18.010000228881836,18.299999237060547,18.0,18.299999237060547,28787
423,2025-01-09,18.059999465942383,18.059999465942383,18.540000915527344,17.5,18.030000686645508,40184
424,2025-01-10,17.200000762939453,17.200000762939453,18.489999771118164,17.0,18.489999771118164,68615
425,2025-01-13,16.889999389648438,16.889999389648438,17.600000381469727,16.25,17.0,145736
426,2025-01-14,17.010000228881836,17.010000228881836,17.280000686645508,16.709999084472656,17.079999923706055,37281
427,2025-01-15,17.100000381469727,17.100000381469727,17.3799991607666,16.780000686645508,16.780000686645508,50716
428,2025-01-16,17.190000534057617,17.190000534057617,17.389999389648438,17.0,17.389999389648438,28612
429,2025-01-17,16.8799991607666,16.8799991607666,17.450000762939453,16.5,17.010000228881836,53823
430,2025-01-20,17.059999465942383,17.059999465942383,17.190000534057617,16.889999389648438,17.190000534057617,18396
431,2025-01-21,16.510000228881836,16.510000228881836,17.190000534057617,16.479999542236328,17.059999465942383,43094
432,2025-01-22,16.59000015258789,16.59000015258789,16.8700008392334,16.25,16.520000457763672,17317
433,2025-01-23,16.559999465942383,16.559999465942383,17.5,16.299999237060547,16.549999237060547,99971
434,2025-01-24,15.140000343322754,15.140000343322754,16.860000610351562,14.600000381469727,16.860000610351562,183985
435,2025-01-27,14.539999961853027,14.539999961853027,15.140000343322754,14.5,15.140000343322754,430577
436,2025-01-28,15.390000343322754,15.390000343322754,15.949999809265137,14.5,14.800000190734863,97490
437,2025-01-29,16.079999923706055,16.079999923706055,16.399999618530273,15.460000038146973,15.649999618530273,88820
438,2025-01-30,17.829999923706055,17.829999923706055,18.200000762939453,16.0,16.0,197686
439,2025-01-31,19.479999542236328,19.479999542236328,20.049999237060547,17.850000381469727,18.25,491499
440,2025-02-01,20.06999969482422,20.06999969482422,21.200000762939453,18.530000686645508,19.489999771118164,259985
441,2025-02-03,19.6200008392334,19.6200008392334,20.059999465942383,19.5,20.059999465942383,68335
442,2025-02-04,19.899999618530273,19.899999618530273,20.25,19.5,19.979999542236328,50915
443,2025-02-05,19.239999771118164,19.239999771118164,20.0,19.0,20.0,45610
444,2025-02-06,20.43000030517578,20.43000030517578,20.799999237060547,18.5,19.649999618530273,263486
445,2025-02-07,19.5,19.5,20.389999389648438,19.110000610351562,20.0,102317
446,2025-02-10,19.350000381469727,19.350000381469727,20.0,19.0,20.0,47454
447,2025-02-11,20.280000686645508,20.280000686645508,20.600000381469727,19.0,19.969999313354492,297837
448,2025-02-12,22.219999313354492,22.219999313354492,22.690000534057617,20.360000610351562,20.479999542236328,1727835
449,2025-02-13,22.610000610351562,22.610000610351562,23.5,21.200000762939453,22.18000030517578,603448
450,2025-02-14,22.43000030517578,22.43000030517578,23.399999618530273,21.920000076293945,23.399999618530273,244385
451,2025-02-17,22.520000457763672,22.520000457763672,23.25,22.0,22.950000762939453,221842
452,2025-02-18,22.950000762939453,22.950000762939453,23.489999771118164,22.0,23.489999771118164,308089
453,2025-02-19,25.260000228881836,25.260000228881836,27.0,23.010000228881836,23.290000915527344,874064
454,2025-02-20,27.1299991607666,27.1299991607666,29.0,25.06999969482422,25.5,1263696
455,2025-02-21,30.219999313354492,30.219999313354492,31.200000762939453,27.5,27.799999237060547,1149173
456,2025-02-24,36.2599983215332,36.2599983215332,36.2599983215332,31.299999237060547,32.0,5656998
457,2025-02-25,34.439998626708984,34.439998626708984,36.0,34.439998626708984,35.0,219078
458,2025-02-27,32.709999084472656,32.709999084472656,32.709999084472656,32.709999084472656,32.709999084472656,7447
459,2025-02-28,31.06999969482422,31.06999969482422,31.06999969482422,31.06999969482422,31.06999969482422,9825
460,2025-03-03,29.510000228881836,29.510000228881836,29.510000228881836,29.510000228881836,29.510000228881836,89287
461,2025-03-04,28.030000686645508,28.030000686645508,28.079999923706055,28.030000686645508,28.079999923706055,8686
462,2025-03-05,26.6200008392334,26.6200008392334,26.6200008392334,26.6200008392334,26.6200008392334,49996
463,2025-03-06,25.280000686645508,25.280000686645508,25.280000686645508,25.280000686645508,25.280000686645508,8457
464,2025-03-07,26.540000915527344,26.540000915527344,26.540000915527344,24.010000228881836,24.010000228881836,356098
465,2025-03-10,25.209999084472656,25.209999084472656,27.799999237060547,25.209999084472656,27.600000381469727,165006
466,2025-03-11,23.940000534057617,23.940000534057617,23.950000762939453,23.940000534057617,23.950000762939453,213297
467,2025-03-12,23.809999465942383,23.809999465942383,24.100000381469727,22.739999771118164,22.739999771118164,371268
468,2025-03-13,25.0,25.0,25.0,22.610000610351562,23.0,340195
469,2025-03-17,23.75,23.75,24.5,23.75,24.049999237060547,78720
470,2025-03-18,23.75,23.75,23.75,23.75,23.75,0
471,2025-03-19,25.459999084472656,25.459999084472656,25.459999084472656,24.260000228881836,25.450000762939453,63768
472,2025-03-20,26.729999542236328,26.729999542236328,26.729999542236328,26.5,26.639999389648438,20941
473,2025-03-21,28.059999465942383,28.059999465942383,28.059999465942383,27.049999237060547,27.700000762939453,98970
474,2025-03-24,29.459999084472656,29.459999084472656,29.459999084472656,28.5,29.399999618530273,15486
475,2025-03-25,30.93000030517578,30.93000030517578,30.93000030517578,30.93000030517578,30.93000030517578,44249
476,2025-03-26,31.540000915527344,31.540000915527344,31.540000915527344,30.309999465942383,31.540000915527344,119962
477,2025-03-27,32.16999816894531,32.16999816894531,32.16999816894531,32.16999816894531,32.16999816894531,30533
478,2025-03-28,32.810001373291016,32.810001373291016,32.810001373291016,32.810001373291016,32.810001373291016,28661
479,2025-04-01,33.459999084472656,33.459999084472656,33.459999084472656,33.459999084472656,33.459999084472656,16372
480,2025-04-02,34.119998931884766,34.119998931884766,34.119998931884766,34.119998931884766,34.119998931884766,30920
481,2025-04-03,34.79999923706055,34.79999923706055,34.79999923706055,34.79999923706055,34.79999923706055,22441
482,2025-04-04,35.4900016784668,35.4900016784668,35.4900016784668,35.4900016784668,35.4900016784668,37274
483,2025-04-07,36.189998626708984,36.189998626708984,36.189998626708984,36.189998626708984,36.189998626708984,155576
484,2025-04-08,36.90999984741211,36.90999984741211,36.90999984741211,36.90999984741211,36.90999984741211,36527
485,2025-04-09,37.63999938964844,37.63999938964844,37.63999938964844,37.63999938964844,37.63999938964844,46587
486,2025-04-11,38.38999938964844,38.38999938964844,38.38999938964844,38.38999938964844,38.38999938964844,30197
487,2025-04-15,39.150001525878906,39.150001525878906,39.150001525878906,39.150001525878906,39.150001525878906,31442
488,2025-04-16,39.93000030517578,39.93000030517578,39.93000030517578,39.93000030517578,39.93000030517578,23110
489,2025-04-17,40.720001220703125,40.720001220703125,40.720001220703125,40.720001220703125,40.720001220703125,21244
490,2025-04-21,39.900001525878906,39.900001525878906,39.900001525878906,39.900001525878906,39.900001525878906,281187
491,2025-04-22,39.099998474121094,39.099998474121094,39.099998474121094,39.099998474121094,39.099998474121094,272985
492,2025-04-23,38.310001373291016,38.310001373291016,38.310001373291016,38.310001373291016,38.310001373291016,29895
493,2025-04-24,37.540000915527344,37.540000915527344,37.560001373291016,37.540000915527344,37.540000915527344,523065
494,2025-04-25,36.779998779296875,36.779998779296875,36.779998779296875,36.779998779296875,36.779998779296875,62507
495,2025-04-28,36.040000915527344,36.040000915527344,36.779998779296875,36.040000915527344,36.040000915527344,261861
496,2025-04-29,35.310001373291016,35.310001373291016,35.310001373291016,35.310001373291016,35.310001373291016,49220
497,2025-04-30,34.599998474121094,34.599998474121094,34.599998474121094,34.599998474121094,34.599998474121094,23775
498,2025-05-02,33.900001525878906,33.900001525878906,33.900001525878906,33.900001525878906,33.900001525878906,8873
499,2025-05-05,32.20000076293945,32.20000076293945,33.88999938964844,32.20000076293945,32.5,864614
500,2025-05-06,30.59000015258789,30.59000015258789,30.59000015258789,30.59000015258789,30.59000015258789,124674
501,2025-05-07,30.829999923706055,30.829999923706055,32.11000061035156,29.059999465942383,29.059999465942383,364545
502,2025-05-08,32.36000061035156,32.36000061035156,32.369998931884766,31.889999389648438,32.369998931884766,199465
503,2025-05-09,33.95000076293945,33.95000076293945,33.970001220703125,30.739999771118164,31.0,161434
504,2025-05-12,35.63999938964844,35.63999938964844,35.63999938964844,35.380001068115234,35.63999938964844,135622
505,2025-05-13,37.41999816894531,37.41999816894531,37.41999816894531,37.41999816894531,37.41999816894531,87196
506,2025-05-14,37.7400016784668,37.7400016784668,39.290000915527344,35.599998474121094,39.290000915527344,1085952
507,2025-05-15,36.97999954223633,36.97999954223633,36.97999954223633,36.97999954223633,36.97999954223633,76078
508,2025-05-16,37.5,37.5,37.5,37.04999923706055,37.5,194376
509,2025-05-19,37.5,37.5,37.5,37.099998474121094,37.5,59507
510,2025-05-20,38.25,38.25,38.25,37.83000183105469,38.25,50707
511,2025-05-21,39.0099983215332,39.0099983215332,39.0099983215332,39.0099983215332,39.0099983215332,11730
512,2025-05-22,39.790000915527344,39.790000915527344,39.790000915527344,39.790000915527344,39.790000915527344,21454
513,2025-05-23,40.58000183105469,40.58000183105469,40.58000183105469,40.58000183105469,40.58000183105469,10670
514,2025-05-26,41.38999938964844,41.38999938964844,41.38999938964844,41.38999938964844,41.38999938964844,8638
515,2025-05-27,42.209999084472656,42.209999084472656,42.209999084472656,42.209999084472656,42.209999084472656,12604
516,2025-05-28,43.04999923706055,43.04999923706055,43.04999923706055,43.04999923706055,43.04999923706055,17800
517,2025-05-29,43.90999984741211,43.90999984741211,43.90999984741211,43.90999984741211,43.90999984741211,8293
518,2025-05-30,43.029998779296875,43.029998779296875,44.779998779296875,43.029998779296875,43.029998779296875,860078
519,2025-06-02,42.15999984741211,42.15999984741211,42.15999984741211,42.15999984741211,42.15999984741211,95544
520,2025-06-03,41.310001373291016,41.310001373291016,41.310001373291016,41.310001373291016,41.310001373291016,25827
521,2025-06-04,40.47999954223633,40.47999954223633,40.47999954223633,40.47999954223633,40.47999954223633,37980
522,2025-06-05,39.66999816894531,39.66999816894531,39.66999816894531,39.66999816894531,39.66999816894531,47978
523,2025-06-06,38.869998931884766,38.869998931884766,38.869998931884766,38.869998931884766,38.869998931884766,21615
524,2025-06-09,39.63999938964844,39.63999938964844,39.63999938964844,38.09000015258789,39.63999938964844,212381
525,2025-06-10,38.84000015258789,38.84000015258789,38.84000015258789,38.84000015258789,38.84000015258789,59702
526,2025-06-11,38.060001373291016,38.060001373291016,38.060001373291016,38.060001373291016,38.060001373291016,41232
527,2025-06-12,37.290000915527344,37.290000915527344,37.290000915527344,37.290000915527344,37.290000915527344,170845
528,2025-06-13,36.540000915527344,36.540000915527344,36.540000915527344,36.540000915527344,36.540000915527344,38358
529,2025-06-16,35.79999923706055,35.79999923706055,35.79999923706055,35.79999923706055,35.79999923706055,7095
530,2025-06-17,35.08000183105469,35.08000183105469,35.08000183105469,35.08000183105469,35.08000183105469,46973
531,2025-06-18,34.369998931884766,34.369998931884766,35.779998779296875,34.369998931884766,34.369998931884766,675387
532,2025-06-19,33.68000030517578,33.68000030517578,33.68000030517578,33.68000030517578,33.68000030517578,126661
533,2025-06-20,33.0,33.0,33.0,33.0,33.0,440710
534,2025-06-23,31.350000381469727,31.350000381469727,31.350000381469727,31.350000381469727,31.350000381469727,89928
535,2025-06-24,31.709999084472656,31.709999084472656,32.90999984741211,29.780000686645508,29.780000686645508,820012
536,2025-06-25,31.829999923706055,31.829999923706055,32.400001525878906,30.1200008392334,30.600000381469727,277473
537,2025-06-26,31.329999923706055,31.329999923706055,32.900001525878906,31.149999618530273,32.0,46820
538,2025-06-27,32.880001068115234,32.880001068115234,32.88999938964844,30.700000762939453,30.700000762939453,96552
539,2025-06-30,34.52000045776367,34.52000045776367,34.52000045776367,33.400001525878906,33.400001525878906,158910
540,2025-07-01,35.150001525878906,35.150001525878906,36.2400016784668,35.0099983215332,36.2400016784668,265582
541,2025-07-02,33.75,33.75,36.0,33.38999938964844,36.0,285130
542,2025-07-03,32.13999938964844,32.13999938964844,34.25,32.06999969482422,33.400001525878906,140776
543,2025-07-04,32.06999969482422,32.06999969482422,32.5,31.049999237060547,31.850000381469727,63461
544,2025-07-07,32.11000061035156,32.11000061035156,32.689998626708984,31.0,31.399999618530273,32457
545,2025-07-08,32.0,32.0,32.70000076293945,30.649999618530273,31.989999771118164,22583
546,2025-07-09,31.420000076293945,31.420000076293945,32.900001525878906,31.100000381469727,32.0,45210
547,2025-07-10,31.219999313354492,31.219999313354492,32.45000076293945,31.0,31.510000228881836,71143
548,2025-07-11,31.75,31.75,32.20000076293945,31.0,32.20000076293945,35786
549,2025-07-14,31.56999969482422,31.56999969482422,32.2400016784668,31.06999969482422,32.2400016784668,16558
550,2025-07-15,31.93000030517578,31.93000030517578,32.099998474121094,30.959999084472656,31.56999969482422,48930
551,2025-07-16,33.52000045776367,33.52000045776367,33.52000045776367,32.0,32.0,29399
552,2025-07-17,35.189998626708984,35.189998626708984,35.189998626708984,35.0,35.099998474121094,269257
553,2025-07-18,36.939998626708984,36.939998626708984,36.939998626708984,34.099998474121094,34.220001220703125,145115
554,2025-07-21,35.91999816894531,35.91999816894531,38.0,35.09000015258789,35.5099983215332,556017
555,2025-07-22,35.20000076293945,35.20000076293945,35.20000076293945,35.20000076293945,35.20000076293945,53617
556,2025-07-23,34.4900016784668,34.4900016784668,34.4900016784668,34.4900016784668,34.4900016784668,3055
557,2025-07-24,33.79999923706055,33.79999923706055,33.79999923706055,33.79999923706055,33.79999923706055,927
558,2025-07-25,33.119998931884766,33.119998931884766,33.119998931884766,33.119998931884766,33.119998931884766,25133
559,2025-07-28,32.45000076293945,32.45000076293945,32.45000076293945,32.45000076293945,32.45000076293945,17643
560,2025-07-29,33.09000015258789,33.09000015258789,33.09000015258789,32.45000076293945,33.09000015258789,95494
561,2025-07-30,33.04999923706055,33.04999923706055,33.689998626708984,33.0,33.04999923706055,14824
562,2025-07-31,33.45000076293945,33.45000076293945,33.45000076293945,33.0,33.45000076293945,17210
563,2025-08-01,33.599998474121094,33.599998474121094,33.599998474121094,33.599998474121094,33.599998474121094,24953
564,2025-08-04,34.27000045776367,34.27000045776367,34.27000045776367,33.0,34.27000045776367,14652
565,2025-08-05,34.880001068115234,34.880001068115234,34.91999816894531,34.880001068115234,34.880001068115234,13276
566,2025-08-06,34.18000030517578,34.18000030517578,34.880001068115234,34.18000030517578,34.18000030517578,1591
567,2025-08-07,33.4900016784668,33.4900016784668,33.9900016784668,33.4900016784668,33.4900016784668,118
568,2025-08-08,33.0,33.0,33.4900016784668,32.81999969482422,33.0,32051
569,2025-08-11,33.0,33.0,33.0,32.40999984741211,33.0,4094
570,2025-08-12,32.34000015258789,32.34000015258789,33.0,32.34000015258789,32.34000015258789,4823
571,2025-08-13,31.700000762939453,31.700000762939453,32.5,31.700000762939453,31.700000762939453,24098
572,2025-08-14,31.059999465942383,31.059999465942383,31.110000610351562,31.059999465942383,31.059999465942383,3650
573,2025-08-18,30.43000030517578,30.43000030517578,31.209999084472656,30.43000030517578,30.43000030517578,14696
574,2025-08-19,31.030000686645508,31.030000686645508,31.030000686645508,30.610000610351562,31.030000686645508,53106
575,2025-08-20,31.600000381469727,31.600000381469727,31.649999618530273,31.489999771118164,31.600000381469727,16197
576,2025-08-21,32.22999954223633,32.22999954223633,32.22999954223633,32.0,32.22999954223633,24766
577,2025-08-22,32.869998931884766,32.869998931884766,32.869998931884766,32.869998931884766,32.869998931884766,2601
578,2025-08-25,33.0,33.0,33.52000045776367,32.97999954223633,33.0,46052
579,2025-08-26,32.34000015258789,32.34000015258789,32.34000015258789,32.34000015258789,32.34000015258789,47021
580,2025-08-28,31.690000534057617,31.690000534057617,31.75,31.690000534057617,31.690000534057617,13156
581,2025-08-29,31.100000381469727,31.100000381469727,31.600000381469727,31.049999237060547,31.100000381469727,41353
582,2025-09-01,31.15999984741211,31.15999984741211,32.20000076293945,29.6299991607666,31.40999984741211,49878
583,2025-09-02,30.170000076293945,30.170000076293945,31.520000457763672,30.0,30.149999618530273,27743
584,2025-09-03,30.18000030517578,30.18000030517578,30.68000030517578,29.149999618530273,30.0,34576
585,2025-09-04,29.530000686645508,29.530000686645508,30.899999618530273,29.200000762939453,29.950000762939453,30932
586,2025-09-05,29.610000610351562,29.610000610351562,30.0,29.0,29.56999969482422,16345
587,2025-09-08,30.270000457763672,30.270000457763672,31.06999969482422,29.5,29.610000610351562,8810
588,2025-09-09,30.0,30.0,30.8700008392334,29.260000228881836,29.799999237060547,47216
589,2025-09-10,30.5,30.5,31.0,29.399999618530273,29.510000228881836,23235
590,2025-09-11,30.600000381469727,30.600000381469727,31.0,29.5,29.899999618530273,20208
591,2025-09-12,31.030000686645508,31.030000686645508,31.40999984741211,30.209999084472656,30.260000228881836,16174
592,2025-09-15,33.970001220703125,33.970001220703125,37.22999954223633,32.5,32.5,898722
593,2025-09-16,34.869998931884766,34.869998931884766,35.9900016784668,33.599998474121094,34.0,149365
594,2025-09-17,32.849998474121094,32.849998474121094,35.0,32.20000076293945,35.0,112132
595,2025-09-18,34.5,34.5,36.18000030517578,32.2599983215332,32.79999923706055,132921
596,2025-09-19,34.790000915527344,34.790000915527344,35.95000076293945,33.0,34.4900016784668,65706
597,2025-09-22,33.130001068115234,33.130001068115234,35.45000076293945,33.0099983215332,35.45000076293945,36939
598,2025-09-23,32.86000061035156,32.86000061035156,34.599998474121094,32.4900016784668,33.0,572020
599,2025-09-24,32.20000076293945,32.20000076293945,33.900001525878906,32.0,33.5,57140
600,2025-09-25,32.029998779296875,32.029998779296875,33.060001373291016,31.299999237060547,33.0099983215332,36075
601,2025-09-26,31.3799991607666,31.3799991607666,33.029998779296875,31.200000762939453,32.029998779296875,23145
602,2025-09-29,30.93000030517578,30.93000030517578,33.0,30.549999237060547,30.549999237060547,57589
603,2025-09-30,30.959999084472656,30.959999084472656,31.950000762939453,30.549999237060547,30.549999237060547,28094
604,2025-10-01,30.549999237060547,30.549999237060547,31.09000015258789,29.200000762939453,30.100000381469727,38738
605,2025-10-03,33.099998474121094,33.099998474121094,33.5,29.5,29.5,85307
606,2025-10-06,32.52000045776367,32.52000045776367,33.790000915527344,32.5,32.5099983215332,37376
607,2025-10-07,32.2599983215332,32.2599983215332,33.0,32.0099983215332,32.099998474121094,35119
608,2025-10-08,31.56999969482422,31.56999969482422,33.0,31.0,32.97999954223633,46363
609,2025-10-09,31.920000076293945,31.920000076293945,33.43000030517578,31.010000228881836,31.520000457763672,29561
610,2025-10-10,31.489999771118164,31.489999771118164,32.599998474121094,31.200000762939453,31.200000762939453,14397
611,2025-10-13,30.18000030517578,30.18000030517578,31.510000228881836,30.010000228881836,31.010000228881836,48814
612,2025-10-14,30.219999313354492,30.219999313354492,31.0,29.850000381469727,30.8700008392334,71252
613,2025-10-15,29.90999984741211,29.90999984741211,30.90999984741211,29.6299991607666,29.75,40992
614,2025-10-16,30.940000534057617,30.940000534057617,33.02000045776367,30.049999237060547,30.049999237060547,141910
615,2025-10-17,29.709999084472656,29.709999084472656,30.899999618530273,29.399999618530273,30.530000686645508,75588
616,2025-10-20,29.899999618530273,29.899999618530273,30.5,29.110000610351562,29.110000610351562,25277
617,2025-10-21,29.81999969482422,29.81999969482422,31.0,29.0,30.200000762939453,16281
618,2025-10-23,29.889999389648438,29.889999389648438,30.0,29.420000076293945,29.420000076293945,11742
619,2025-10-24,29.940000534057617,29.940000534057617,30.0,29.5,29.6299991607666,24142
620,2025-10-27,29.790000915527344,29.790000915527344,29.989999771118164,29.020000457763672,29.559999465942383,37934
621,2025-10-28,29.799999237060547,29.799999237060547,29.920000076293945,29.270000457763672,29.299999237060547,31096
622,2025-10-29,29.549999237060547,29.549999237060547,30.170000076293945,29.43000030517578,29.799999237060547,18764
623,2025-10-30,29.790000915527344,29.790000915527344,30.469999313354492,29.190000534057617,29.190000534057617,31172
624,2025-10-31,29.139999389648438,29.139999389648438,30.0,29.0,29.329999923706055,19506
625,2025-11-03,29.299999237060547,29.299999237060547,29.899999618530273,29.190000534057617,29.200000762939453,11459
626,2025-11-04,28.260000228881836,28.260000228881836,29.389999389648438,27.350000381469727,29.389999389648438,25781
627,2025-11-06,28.5,28.5,28.899999618530273,28.030000686645508,28.299999237060547,27537
628,2025-11-07,28.15999984741211,28.15999984741211,28.799999237060547,27.049999237060547,27.5,36353
629,2025-11-10,29.219999313354492,29.219999313354492,30.690000534057617,27.170000076293945,27.170000076293945,28887
630,2025-11-11,28.940000534057617,28.940000534057617,29.3700008392334,28.399999618530273,29.360000610351562,12152
631,2025-11-12,28.8700008392334,28.8700008392334,29.09000015258789,28.40999984741211,28.93000030517578,7515
632,2025-11-13,29.020000457763672,29.020000457763672,29.489999771118164,28.0,28.25,111427
633,2025-11-14,29.290000915527344,29.290000915527344,30.0,28.600000381469727,29.489999771118164,22137
634,2025-11-17,29.899999618530273,29.899999618530273,30.190000534057617,29.5,30.0,25781
635,2025-11-18,29.729999542236328,29.729999542236328,30.0,29.190000534057617,29.700000762939453,38362
636,2025-11-19,29.8700008392334,29.8700008392334,32.0,29.25,30.5,123417
637,2025-11-20,29.729999542236328,29.729999542236328,30.5,29.15999984741211,30.5,84265
638,2025-11-21,29.1299991607666,29.1299991607666,30.0,28.299999237060547,29.170000076293945,96140
639,2025-11-24,28.239999771118164,28.239999771118164,29.190000534057617,28.0,28.299999237060547,32501
640,2025-11-25,28.790000915527344,28.790000915527344,29.899999618530273,27.329999923706055,27.329999923706055,168119
641,2025-11-26,28.8799991607666,28.8799991607666,30.850000381469727,28.200000762939453,30.850000381469727,110489
642,2025-11-27,29.799999237060547,29.799999237060547,30.399999618530273,28.309999465942383,29.940000534057617,66309
643,2025-11-28,30.209999084472656,30.209999084472656,30.65999984741211,29.299999237060547,30.100000381469727,15229
644,2025-12-01,29.75,29.75,31.479999542236328,29.190000534057617,29.899999618530273,22785
645,2025-12-02,29.690000534057617,29.690000534057617,30.8700008392334,29.020000457763672,29.020000457763672,41841
646,2025-12-03,30.09000015258789,30.09000015258789,30.600000381469727,29.260000228881836,30.59000015258789,36203
647,2025-12-04,29.989999771118164,29.989999771118164,30.920000076293945,29.950000762939453,30.920000076293945,34798
648,2025-12-05,30.139999389648438,30.139999389648438,30.790000915527344,29.549999237060547,30.790000915527344,27776
649,2025-12-08,29.989999771118164,29.989999771118164,30.329999923706055,29.260000228881836,30.010000228881836,34446
650,2025-12-09,30.280000686645508,30.280000686645508,30.84000015258789,29.799999237060547,29.799999237060547,118916
651,2025-12-10,31.020000457763672,31.020000457763672,31.520000457763672,30.209999084472656,30.899999618530273,36752
652,2025-12-11,31.06999969482422,31.06999969482422,32.0099983215332,30.799999237060547,31.290000915527344,26789
653,2025-12-12,31.170000076293945,31.170000076293945,31.979999542236328,30.950000762939453,31.90999984741211,38074
654,2025-12-15,31.389999389648438,31.389999389648438,31.989999771118164,30.0,30.600000381469727,97094
655,2025-12-16,31.010000228881836,31.010000228881836,31.639999389648438,30.65999984741211,30.65999984741211,23626
656,2025-12-17,30.56999969482422,30.56999969482422,31.469999313354492,30.549999237060547,31.260000228881836,23093
657,2025-12-18,30.200000762939453,30.200000762939453,31.75,30.190000534057617,31.75,26185
658,2025-12-19,30.600000381469727,30.600000381469727,31.059999465942383,30.5,31.059999465942383,15166
659,2025-12-22,31.18000030517578,31.18000030517578,31.479999542236328,30.600000381469727,31.079999923706055,38224
660,2025-12-23,30.860000610351562,30.860000610351562,31.700000762939453,30.649999618530273,31.700000762939453,26809
661,2025-12-24,30.989999771118164,30.989999771118164,31.8799991607666,30.899999618530273,31.0,25441
662,2025-12-26,30.940000534057617,30.940000534057617,32.29999923706055,30.899999618530273,31.610000610351562,66861
663,2025-12-29,31.8700008392334,31.8700008392334,33.88999938964844,31.5,31.559999465942383,80562
664,2025-12-30,31.65999984741211,31.65999984741211,32.459999084472656,30.889999389648438,31.399999618530273,14838
665,2025-12-31,32.720001220703125,32.720001220703125,35.0,31.290000915527344,33.20000076293945,113349
666,2026-01-01,31.700000762939453,31.700000762939453,33.09000015258789,31.5,32.720001220703125,34302
667,2026-01-02,31.809999465942383,31.809999465942383,33.0,31.5,33.0,18253
668,2026-01-05,31.610000610351562,31.610000610351562,33.29999923706055,31.399999618530273,31.700000762939453,21020
669,2026-01-06,31.309999465942383,31.309999465942383,33.25,31.100000381469727,33.25,7569
670,2026-01-07,30.90999984741211,30.90999984741211,31.979999542236328,30.899999618530273,31.299999237060547,17731
671,2026-01-08,30.799999237060547,30.799999237060547,32.0099983215332,30.799999237060547,32.0099983215332,19855
672,2026-01-09,30.90999984741211,30.90999984741211,32.31999969482422,30.899999618530273,32.31999969482422,22220
673,2026-01-12,30.5,30.5,31.5,29.200000762939453,30.90999984741211,15151
674,2026-01-13,30.5,30.5,31.8700008392334,30.5,30.6299991607666,21838
675,2026-01-14,30.540000915527344,30.540000915527344,32.97999954223633,30.469999313354492,32.97999954223633,33342
676,2026-01-16,30.6299991607666,30.6299991607666,31.200000762939453,29.25,31.149999618530273,8907
677,2026-01-19,34.18000030517578,34.18000030517578,35.5,30.18000030517578,30.690000534057617,299482
678,2026-01-20,30.520000457763672,30.520000457763672,34.9900016784668,30.299999237060547,34.290000915527344,99526
679,2026-01-21,30.520000457763672,30.520000457763672,31.799999237060547,29.200000762939453,29.200000762939453,38103
680,2026-01-22,30.860000610351562,30.860000610351562,33.5,30.510000228881836,33.5,12101
681,2026-01-23,30.559999465942383,30.559999465942383,32.0,30.5,30.860000610351562,23844
682,2026-01-27,30.670000076293945,30.670000076293945,31.540000915527344,30.5,30.559999465942383,37275
683,2026-01-28,30.760000228881836,30.760000228881836,31.5,30.510000228881836,30.510000228881836,18822
684,2026-01-29,31.34000015258789,31.34000015258789,32.04999923706055,29.399999618530273,29.399999618530273,84754
685,2026-01-30,30.59000015258789,30.59000015258789,31.899999618530273,30.0,31.899999618530273,107170
686,2026-02-02,30.200000762939453,30.200000762939453,31.579999923706055,29.450000762939453,29.450000762939453,46316
687,2026-02-03,30.5,30.5,31.489999771118164,29.25,29.25,27970
688,2026-02-04,30.700000762939453,30.700000762939453,31.440000534057617,30.25,31.260000228881836,106181
689,2026-02-05,30.5,30.5,31.139999389648438,30.100000381469727,30.149999618530273,46235
690,2026-02-06,30.540000915527344,30.540000915527344,31.0,29.5,30.489999771118164,20538
691,2026-02-09,31.260000228881836,31.260000228881836,31.600000381469727,29.780000686645508,30.540000915527344,19365
692,2026-02-10,31.020000457763672,31.020000457763672,31.510000228881836,30.709999084472656,31.510000228881836,18312
693,2026-02-11,30.6299991607666,30.6299991607666,31.299999237060547,30.5,30.549999237060547,45923
694,2026-02-12,31.010000228881836,31.010000228881836,31.479999542236328,30.40999984741211,31.479999542236328,25587
695,2026-02-13,30.6299991607666,30.6299991607666,31.389999389648438,30.15999984741211,31.389999389648438,27803
696,2026-02-16,31.1200008392334,31.1200008392334,31.5,29.649999618530273,31.5,64012
697,2026-02-17,31.040000915527344,31.040000915527344,31.989999771118164,30.799999237060547,31.510000228881836,31933
698,2026-02-18,31.030000686645508,31.030000686645508,31.350000381469727,30.260000228881836,30.260000228881836,23347
699,2026-02-19,30.579999923706055,30.579999923706055,31.239999771118164,30.299999237060547,30.299999237060547,30880
700,2026-02-20,31.06999969482422,31.06999969482422,31.280000686645508,30.610000610351562,30.700000762939453,318708
701,2026-02-23,31.780000686645508,31.780000686645508,32.47999954223633,30.700000762939453,31.190000534057617,283684
702,2026-02-24,34.5,34.5,34.900001525878906,31.5,32.45000076293945,300634
703,2026-02-25,37.15999984741211,37.15999984741211,40.380001068115234,35.5,36.70000076293945,747491
704,2026-02-26,38.47999954223633,38.47999954223633,39.0,35.20000076293945,37.5,193002
705,2026-02-27,35.540000915527344,35.540000915527344,40.349998474121094,34.04999923706055,38.5,270807
706,2026-03-02,32.95000076293945,32.95000076293945,35.5,32.25,35.5,129760
707,2026-03-04,33.869998931884766,33.869998931884766,35.349998474121094,32.099998474121094,32.099998474121094,57382
708,2026-03-05,34.31999969482422,34.31999969482422,35.31999969482422,32.31999969482422,34.790000915527344,51213
709,2026-03-06,35.880001068115234,35.880001068115234,38.47999954223633,34.97999954223633,35.34000015258789,227477
710,2026-03-09,34.560001373291016,34.560001373291016,35.869998931884766,33.75,35.869998931884766,38380
711,2026-03-10,38.849998474121094,38.849998474121094,41.470001220703125,35.029998779296875,36.79999923706055,418410
712,2026-03-11,39.40999984741211,39.40999984741211,42.0,36.7599983215332,38.849998474121094,428693
713,2026-03-12,36.18000030517578,36.18000030517578,39.79999923706055,35.099998474121094,39.79999923706055,504491
714,2026-03-13,36.7599983215332,36.7599983215332,39.0,35.599998474121094,36.18000030517578,130190
715,2026-03-16,35.22999954223633,35.22999954223633,36.529998779296875,34.20000076293945,35.720001220703125,207771
716,2026-03-17,34.33000183105469,34.33000183105469,36.099998474121094,34.11000061035156,35.2599983215332,85843
717,2026-03-18,34.2599983215332,34.2599983215332,35.0,34.0,34.84000015258789,59459
718,2026-03-19,33.56999969482422,33.56999969482422,34.77000045776367,33.5,33.900001525878906,83212
719,2026-03-20,32.97999954223633,32.97999954223633,34.0,32.90999984741211,33.310001373291016,61193
720,2026-03-23,30.010000228881836,30.010000228881836,33.900001525878906,29.100000381469727,32.900001525878906,347825
721,2026-03-24,31.190000534057617,31.190000534057617,31.540000915527344,29.799999237060547,29.799999237060547,115420
722,2026-03-25,31.020000457763672,31.020000457763672,31.950000762939453,30.799999237060547,30.799999237060547,66919
723,2026-03-27,30.459999084472656,30.459999084472656,31.780000686645508,30.399999618530273,31.020000457763672,76320
724,2026-03-30,29.75,29.75,32.0,28.559999465942383,30.899999618530273,97814
725,2026-04-01,30.229999542236328,30.229999542236328,31.790000915527344,30.0,30.25,99485
726,2026-04-02,30.15999984741211,30.15999984741211,30.510000228881836,29.799999237060547,30.239999771118164,56852
727,2026-04-06,30.329999923706055,30.329999923706055,30.700000762939453,30.0,30.0,47909
728,2026-04-07,30.25,30.25,30.5,30.0,30.329999923706055,28681
729,2026-04-08,30.399999618530273,30.399999618530273,31.489999771118164,30.299999237060547,31.200000762939453,101867
730,2026-04-09,30.719999313354492,30.719999313354492,30.93000030517578,30.059999465942383,30.059999465942383,16407
731,2026-04-10,33.4900016784668,33.4900016784668,33.849998474121094,30.56999969482422,31.40999984741211,204306
732,2026-04-13,34.040000915527344,34.040000915527344,34.83000183105469,32.58000183105469,33.0099983215332,69462
733,2026-04-15,35.040000915527344,35.040000915527344,35.849998474121094,34.060001373291016,35.04999923706055,65903
734,2026-04-16,35.060001373291016,35.060001373291016,35.939998626708984,34.29999923706055,35.939998626708984,35054
735,2026-04-17,36.04999923706055,36.04999923706055,36.45000076293945,34.400001525878906,34.400001525878906,82085
736,2026-04-20,33.38999938964844,33.38999938964844,35.9900016784668,33.20000076293945,34.400001525878906,65288
737,2026-04-21,33.0099983215332,33.0099983215332,34.18000030517578,33.0,33.0,16328
738,2026-04-22,33.470001220703125,33.470001220703125,34.4900016784668,33.0,33.0099983215332,38074
